E_vis_MeV,Counts
0.9051905006054605,66
0.9252492344829069,91
0.9453079683603531,124
0.9653667022377995,159
0.9854254361152458,198
1.0054841699926922,233
1.0255429038701385,263
1.0456016377475847,290
1.0656603716250312,314
1.0857191055024775,334
1.1057778393799238,354
1.1258365732573703,369
1.1458953071348166,382
1.1659540410122629,392
1.1860127748897091,404
1.2060715087671556,415
1.226130242644602,424
1.2461889765220482,434
1.2662477103994945,445
1.286306444276941,453
1.3063651781543872,456
1.3264239120318335,456
1.34648264590928,452
1.3665413797867263,440
1.3866001136641726,429
1.4066588475416189,412
1.4267175814190654,400
1.4467763152965116,394
1.466835049173958,392
1.4868937830514042,391
1.5069525169288507,389
1.527011250806297,381
1.5470699846837432,368
1.5671287185611897,361
1.587187452438636,357
1.6072461863160823,352
1.6273049201935286,349
1.647363654070975,342
1.6674223879484213,336
1.6874811218258676,330
1.707539855703314,329
1.7275985895807604,329
1.7476573234582067,328
1.767716057335653,326
1.7877747912130995,321
1.8078335250905457,317
1.827892258967992,315
1.8479509928454383,314
1.8680097267228848,317
1.888068460600331,316
1.9081271944777773,312
1.9281859283552236,308
1.9482446622326701,303
1.9683033961101164,299
1.9883621299875627,300
2.008420863865009,303
2.0284795977424555,309
2.048538331619902,314
2.068597065497348,316
2.0886557993747945,315
2.1087145332522406,313
2.128773267129687,312
2.1488320010071336,314
2.1688907348845796,318
2.188949468762026,324
2.2090082026394726,330
2.2290669365169187,335
2.249125670394365,336
2.2691844042718117,335
2.2892431381492577,333
2.3093018720267042,331
2.3293606059041503,330
2.349419339781597,332
2.3694780736590433,337
2.3895368075364893,343
2.409595541413936,347
2.4296542752913823,348
2.4497130091688284,347
2.469771743046275,343
2.4898304769237214,339
2.5098892108011674,336
2.529947944678614,331
2.55000667855606,331
2.5700654124335065,335
2.590124146310953,340
2.610182880188399,348
2.6302416140658456,355
2.650300347943292,360
2.670359081820738,364
2.6904178156981846,364
2.710476549575631,363
2.730535283453077,361
2.7505940173305237,357
2.7706527512079697,356
2.790711485085416,358
2.8107702189628627,361
2.8308289528403088,365
2.8508876867177553,371
2.8709464205952018,377
2.891005154472648,381
2.9110638883500943,382
2.931122622227541,385
2.951181356104987,383
2.9712400899824334,380
2.9912988238598794,376
3.011357557737326,372
3.0314162916147724,370
3.0514750254922185,370
3.071533759369665,372
3.0915924932471115,378
3.1116512271245576,386
3.131709961002004,394
3.1517686948794505,404
3.1718274287568966,412
3.191886162634343,419
3.211944896511789,423
3.2320036303892357,425
3.252062364266682,425
3.272121098144128,422
3.2921798320215747,418
3.312238565899021,414
3.3322972997764673,410
3.3523560336539138,408
3.3724147675313603,407
3.3924735014088063,409
3.412532235286253,413
3.432590969163699,419
3.4526497030411454,426
3.472708436918592,434
3.492767170796038,442
3.5128259046734844,449
3.532884638550931,456
3.552943372428377,459
3.5730021063058235,460
3.59306084018327,460
3.613119574060716,457
3.6331783079381625,454
3.6532370418156086,449
3.673295775693055,444
3.6933545095705016,438
3.7134132434479477,434
3.733471977325394,431
3.7535307112028407,430
3.7735894450802867,430
3.793648178957733,433
3.8137069128351797,437
3.8337656467126258,442
3.8538243805900723,448
3.8738831144675183,454
3.893941848344965,460
3.9140005822224113,466
3.9340593160998574,471
3.954118049977304,474
3.9741767838547504,476
3.9942355177321964,477
4.014294251609643,476
4.034352985487089,474
4.054411719364536,471
4.0744704532419815,467
4.094529187119428,463
4.1145879209968745,459
4.134646654874321,455
4.1547053887517675,452
4.174764122629214,449
4.19482285650666,448
4.214881590384106,448
4.234940324261553,449
4.254999058138999,451
4.275057792016446,455
4.295116525893891,459
4.315175259771338,464
4.335233993648784,469
4.355292727526231,475
4.375351461403677,480
4.395410195281124,484
4.415468929158569,488
4.435527663036016,491
4.455586396913462,493
4.475645130790909,494
4.495703864668355,493
4.515762598545801,480
4.5358213324232475,477
4.555880066300694,474
4.5759388001781405,469
4.595997534055587,464
4.6160562679330335,459
4.636115001810479,453
4.656173735687926,447
4.676232469565372,442
4.696291203442819,437
4.716349937320265,432
4.736408671197711,429
4.756467405075157,426
4.776526138952604,423
4.79658487283005,422
4.816643606707497,422
4.836702340584943,422
4.856761074462389,423
4.876819808339835,424
4.896878542217282,426
4.916937276094728,428
4.936996009972175,429
4.95705474384962,431
4.977113477727067,433
4.997172211604513,433
5.01723094548196,434
5.037289679359406,433
5.057348413236853,432
5.0774071471142985,430
5.097465880991745,428
5.1175246148691915,424
5.137583348746638,420
5.1576420826240845,415
5.17770081650153,410
5.197759550378977,404
5.217818284256423,398
5.23787701813387,391
5.257935752011316,384
5.277994485888763,378
5.298053219766208,371
5.318111953643655,364
5.338170687521101,358
5.358229421398548,352
5.378288155275994,346
5.39834688915344,340
5.418405623030886,335
5.438464356908333,330
5.458523090785779,326
5.478581824663226,322
5.498640558540672,318
5.518699292418118,315
5.5387580262955645,312
5.558816760173011,309
5.5788754940504575,306
5.598934227927904,304
5.61899296180535,301
5.639051695682796,299
5.659110429560243,297
5.679169163437689,294
5.699227897315136,292
5.719286631192582,290
5.739345365070028,287
5.759404098947474,285
5.779462832824921,282
5.799521566702367,280
5.819580300579814,277
5.839639034457259,274
5.859697768334706,270
5.879756502212152,267
5.899815236089599,263
5.919873969967045,259
5.939932703844492,255
5.959991437721937,251
5.980050171599384,246
6.00010890547683,241
6.020167639354277,237
6.040226373231723,232
6.060285107109169,227
6.0803438409866155,222
6.100402574864062,216
6.1204613087415085,211
6.140520042618955,206
6.1605787764964015,201
6.180637510373847,196
6.200696244251294,191
6.22075497812874,187
6.240813712006187,182
6.260872445883633,178
6.280931179761079,174
6.300989913638525,170
6.321048647515972,166
6.341107381393418,162
6.361166115270865,158
6.381224849148311,155
6.401283583025757,152
6.421342316903203,149
6.44140105078065,146
6.461459784658096,143
6.481518518535543,140
6.5015772524129885,138
6.521635986290435,135
6.5416947201678814,133
6.561753454045328,130
6.5818121879227744,128
6.601870921800221,126
6.621929655677667,123
6.641988389555113,121
6.66204712343256,119
6.682105857310006,116
6.702164591187453,114
6.722223325064898,111
6.742282058942345,109
6.762340792819791,106
6.782399526697238,104
6.802458260574684,101
6.822516994452131,98
6.842575728329576,96
6.862634462207023,93
6.882693196084469,90
6.902751929961916,87
6.922810663839362,84
6.942869397716808,82
6.962928131594254,79
6.982986865471701,76
7.003045599349147,74
7.023104333226594,71
7.04316306710404,69
7.063221800981486,67
7.0832805348589325,64
7.103339268736379,62
7.1233980026138255,60
7.143456736491272,58
7.163515470368718,56
7.183574204246164,54
7.203632938123611,52
7.223691672001057,50
7.243750405878504,48
7.26380913975595,47
7.283867873633396,45
7.303926607510842,43
7.323985341388289,42
7.344044075265735,40
7.364102809143182,39
7.384161543020627,37
7.404220276898074,36
7.42427901077552,34
7.444337744652967,33
7.464396478530413,31
7.48445521240786,30
7.504513946285305,29
7.524572680162752,27
7.544631414040198,26
7.564690147917645,25
7.584748881795091,24
7.604807615672537,23
7.6248663495499835,21
7.64492508342743,20
7.6649838173048765,19
7.685042551182323,18
7.7051012850597695,17
7.725160018937215,17
7.745218752814662,16
7.765277486692108,15
7.785336220569555,14
7.805394954447001,13
7.825453688324447,13
7.845512422201893,12
7.86557115607934,11
7.885629889956786,11
7.905688623834233,10
7.925747357711679,9
7.945806091589125,9
7.965864825466571,8
7.985923559344018,8
8.005982293221464,7
8.02604102709891,7
8.046099760976357,7
8.066158494853804,6
8.08621722873125,6
8.106275962608695,6
8.126334696486142,6
8.146393430363588,5
8.166452164241035,5
8.186510898118481,5
8.206569631995928,5
8.226628365873374,5
8.24668709975082,5
8.266745833628267,5
8.286804567505714,5
8.30686330138316,5
8.326922035260605,5
8.346980769138051,5
8.367039503015498,5
8.387098236892944,5
8.40715697077039,5
8.427215704647837,5
